# first column: time
# 2 column: 0 component of the mean thermodynamic force for material 1
# 3 column: 1 component of the mean thermodynamic force for material 1
# 4 column: 2 component of the mean thermodynamic force for material 1
# 5 column: 3 component of the mean thermodynamic force for material 1
# 6 column: 4 component of the mean thermodynamic force for material 1
# 7 column: 5 component of the mean thermodynamic force for material 1
# 8 column: 0 component of the mean thermodynamic force for material 2
# 9 column: 1 component of the mean thermodynamic force for material 2
# 10 column: 2 component of the mean thermodynamic force for material 2
# 11 column: 3 component of the mean thermodynamic force for material 2
# 12 column: 4 component of the mean thermodynamic force for material 2
# 13 column: 5 component of the mean thermodynamic force for material 2
0.125 -4.71896e+06 -4.71668e+06 9.43835e+06 761.331 2727.51 -268.087 -6.70628e+06 -6.72994e+06 1.3408e+07 -7928.01 -28402.6 2791.69
0.25 -9.43791e+06 -9.43337e+06 1.88767e+07 1522.66 5455.03 -536.174 -1.34126e+07 -1.34599e+07 2.6816e+07 -15856 -56805.1 5583.37
0.375 -1.41569e+07 -1.41501e+07 2.8315e+07 2283.99 8182.54 -804.261 -2.01188e+07 -2.01898e+07 4.0224e+07 -23784 -85207.7 8375.06
0.5 -1.88758e+07 -1.88667e+07 3.77534e+07 3045.32 10910.1 -1072.35 -2.68251e+07 -2.69198e+07 5.3632e+07 -31712.1 -113610 11166.7
0.625 -2.35948e+07 -2.35834e+07 4.71917e+07 3806.68 13637.6 -1340.45 -3.35314e+07 -3.36497e+07 6.704e+07 -39640.6 -142013 13958.7
0.75 -2.83137e+07 -2.83001e+07 5.66301e+07 4568.04 16364.8 -1608.88 -4.02377e+07 -4.03796e+07 8.04478e+07 -47570.5 -170410 16753.4
0.875 -3.30274e+07 -3.30115e+07 6.6064e+07 5329.84 19081.5 -1885.97 -4.69502e+07 -4.71164e+07 9.38051e+07 -55544 -198622 19695.8
1 -3.75217e+07 -3.75035e+07 7.51858e+07 6127.48 21668.8 -2369.67 -5.37055e+07 -5.39024e+07 1.05935e+08 -66440.5 -222554 29547.5
1.125 -4.05742e+07 -4.05539e+07 8.17117e+07 6765.41 24243.7 -3326.78 -5.97929e+07 -6.0044e+07 1.1376e+08 -84168.7 -251991 53358
1.25 -4.15423e+07 -4.15202e+07 8.40794e+07 7082.94 27007.8 -4133.02 -6.422e+07 -6.45463e+07 1.18177e+08 -103800 -302498 76287.4
1.375 -4.16043e+07 -4.15812e+07 8.4498e+07 7299.67 29685 -4518.06 -6.76146e+07 -6.8018e+07 1.21964e+08 -120858 -362232 94531.7
1.5 -4.14987e+07 -4.14752e+07 8.45007e+07 7464.77 32147.9 -4678.15 -7.06167e+07 -7.10938e+07 1.25811e+08 -136176 -423474 111138
1.625 -4.13688e+07 -4.13453e+07 8.44102e+07 7541.84 34375.3 -4717.53 -7.33921e+07 -7.39403e+07 1.2967e+08 -150865 -485110 127202
1.75 -4.12358e+07 -4.12126e+07 8.4285e+07 7512.96 36361.7 -4672.86 -7.59892e+07 -7.66067e+07 1.33471e+08 -165306 -546993 143054
1.875 -4.11042e+07 -4.10817e+07 8.41428e+07 7376.41 38107.3 -4557.86 -7.84346e+07 -7.912e+07 1.37177e+08 -179583 -609030 158809
2 -4.09756e+07 -4.09539e+07 8.39915e+07 7137.14 39616.7 -4379.8 -8.07464e+07 -8.14988e+07 1.40772e+08 -193709 -671137 174505
2.125 -4.08505e+07 -4.08298e+07 8.38357e+07 6801.53 40896.9 -4144.76 -8.29387e+07 -8.37573e+07 1.44252e+08 -207693 -733243 190153
2.25 -4.07293e+07 -4.07098e+07 8.36778e+07 6375.49 41956.8 -3858.67 -8.5023e+07 -8.59071e+07 1.47618e+08 -221553 -795294 205752
2.375 -4.06123e+07 -4.0594e+07 8.35198e+07 5864.05 42806.1 -3527.37 -8.70089e+07 -8.79578e+07 1.50876e+08 -235312 -857242 221303
2.5 -4.04994e+07 -4.04825e+07 8.33628e+07 5271.66 43455.9 -3156.43 -8.89048e+07 -8.99179e+07 1.5403e+08 -248995 -919047 236803
2.625 -4.03907e+07 -4.03753e+07 8.32077e+07 4602.42 43917.6 -2751.05 -9.07182e+07 -9.1795e+07 1.57086e+08 -262622 -980672 252253
2.75 -4.02861e+07 -4.02723e+07 8.30552e+07 3860.31 44203.2 -2316.04 -9.24558e+07 -9.35956e+07 1.60051e+08 -276214 -1.04209e+06 267653
2.875 -4.01856e+07 -4.01733e+07 8.29057e+07 3049.32 44324.9 -1855.83 -9.41237e+07 -9.5326e+07 1.6293e+08 -289784 -1.10326e+06 283002
3 -4.0089e+07 -4.00784e+07 8.27595e+07 2173.5 44294.8 -1374.44 -9.57275e+07 -9.69917e+07 1.65728e+08 -303345 -1.16417e+06 298301
3.125 -3.99964e+07 -3.99874e+07 8.26169e+07 1236.93 44124.7 -875.551 -9.7272e+07 -9.85976e+07 1.6845e+08 -316907 -1.22479e+06 313551
3.25 -3.99074e+07 -3.99001e+07 8.2478e+07 243.753 43826.4 -362.472 -9.8762e+07 -1.00148e+08 1.71102e+08 -330477 -1.2851e+06 328753
3.375 -3.9822e+07 -3.98164e+07 8.23429e+07 -801.946 43411 161.797 -1.00201e+08 -1.01648e+08 1.73686e+08 -344060 -1.3451e+06 343907
3.5 -3.974e+07 -3.97361e+07 8.22116e+07 -1896.12 42889.3 694.563 -1.01594e+08 -1.031e+08 1.76209e+08 -357660 -1.40476e+06 359014
3.625 -3.96613e+07 -3.9659e+07 8.20842e+07 -3034.83 42271.5 1233.42 -1.02944e+08 -1.04509e+08 1.78672e+08 -371281 -1.46408e+06 374076
3.75 -3.95857e+07 -3.95851e+07 8.19605e+07 -4214.26 41567.3 1776.24 -1.04253e+08 -1.05877e+08 1.8108e+08 -384925 -1.52304e+06 389093
3.875 -3.95131e+07 -3.95141e+07 8.18405e+07 -5430.76 40785.6 2321.11 -1.05525e+08 -1.07207e+08 1.83436e+08 -398592 -1.58165e+06 404067
4 -3.94433e+07 -3.94459e+07 8.17242e+07 -6680.88 39935.1 2866.39 -1.06763e+08 -1.08502e+08 1.85743e+08 -412285 -1.63989e+06 418998
4.125 -3.93762e+07 -3.93804e+07 8.16115e+07 -7961.34 39023.6 3410.63 -1.07968e+08 -1.09764e+08 1.88003e+08 -426004 -1.69776e+06 433888
4.25 -3.93116e+07 -3.93174e+07 8.15021e+07 -9269.08 38058.4 3952.57 -1.09143e+08 -1.10996e+08 1.9022e+08 -439750 -1.75526e+06 448739
4.375 -3.92495e+07 -3.92568e+07 8.13961e+07 -10601.2 37046.4 4491.13 -1.1029e+08 -1.12199e+08 1.92395e+08 -453523 -1.8124e+06 463550
4.5 -3.91896e+07 -3.91984e+07 8.12934e+07 -11955.2 35993.9 5025.4 -1.1141e+08 -1.13375e+08 1.94531e+08 -467326 -1.86917e+06 478325
4.625 -3.91319e+07 -3.91422e+07 8.11937e+07 -13328.4 34906.5 5554.61 -1.12507e+08 -1.14526e+08 1.9663e+08 -481156 -1.92557e+06 493063
4.75 -3.90762e+07 -3.9088e+07 8.1097e+07 -14718.8 33789.5 6078.13 -1.1358e+08 -1.15654e+08 1.98694e+08 -495017 -1.98161e+06 507767
4.875 -3.90225e+07 -3.90357e+07 8.10031e+07 -16124.2 32647.9 6595.44 -1.14632e+08 -1.1676e+08 2.00725e+08 -508907 -2.03728e+06 522438
5 -3.89706e+07 -3.89852e+07 8.0912e+07 -17542.7 31485.8 7106.12 -1.15663e+08 -1.17845e+08 2.02725e+08 -522828 -2.09261e+06 537076
